	# r     V(p)     V(n)     m*(p)/m     m*(n)/m    VC 
   0.10000E+00  -0.43004E+02  -0.40322E+02  -0.51149E+01  -0.51190E+01   0.99600E+01
   0.20000E+00  -0.43392E+02  -0.40728E+02  -0.48212E+01  -0.48253E+01   0.99526E+01
   0.30000E+00  -0.43757E+02  -0.41131E+02  -0.46701E+01  -0.46748E+01   0.99402E+01
   0.40000E+00  -0.44269E+02  -0.41690E+02  -0.44988E+01  -0.45045E+01   0.99228E+01
   0.50000E+00  -0.44911E+02  -0.42387E+02  -0.42864E+01  -0.42931E+01   0.99005E+01
   0.60000E+00  -0.45657E+02  -0.43194E+02  -0.40354E+01  -0.40435E+01   0.98733E+01
   0.70000E+00  -0.46487E+02  -0.44090E+02  -0.37492E+01  -0.37587E+01   0.98412E+01
   0.80000E+00  -0.47373E+02  -0.45043E+02  -0.34339E+01  -0.34450E+01   0.98042E+01
   0.90000E+00  -0.48283E+02  -0.46020E+02  -0.30968E+01  -0.31094E+01   0.97624E+01
   0.10000E+01  -0.49182E+02  -0.46986E+02  -0.27468E+01  -0.27610E+01   0.97158E+01
   0.11000E+01  -0.50033E+02  -0.47901E+02  -0.23939E+01  -0.24095E+01   0.96643E+01
   0.12000E+01  -0.50800E+02  -0.48730E+02  -0.20490E+01  -0.20659E+01   0.96081E+01
   0.13000E+01  -0.51447E+02  -0.49438E+02  -0.17234E+01  -0.17413E+01   0.95471E+01
   0.14000E+01  -0.51947E+02  -0.49996E+02  -0.14281E+01  -0.14465E+01   0.94814E+01
   0.15000E+01  -0.52277E+02  -0.50383E+02  -0.11728E+01  -0.11916E+01   0.94110E+01
   0.16000E+01  -0.52425E+02  -0.50588E+02  -0.96600E+00  -0.98473E+00   0.93359E+01
   0.17000E+01  -0.52389E+02  -0.50608E+02  -0.81384E+00  -0.83214E+00   0.92561E+01
   0.18000E+01  -0.52176E+02  -0.50450E+02  -0.72004E+00  -0.73756E+00   0.91719E+01
   0.19000E+01  -0.51801E+02  -0.50132E+02  -0.68573E+00  -0.70218E+00   0.90832E+01
   0.20000E+01  -0.51286E+02  -0.49675E+02  -0.70959E+00  -0.72475E+00   0.89901E+01
   0.21000E+01  -0.50658E+02  -0.49108E+02  -0.78814E+00  -0.80185E+00   0.88927E+01
   0.22000E+01  -0.49946E+02  -0.48461E+02  -0.91609E+00  -0.92827E+00   0.87912E+01
   0.23000E+01  -0.49179E+02  -0.47763E+02  -0.10869E+01  -0.10975E+01   0.86858E+01
   0.24000E+01  -0.48384E+02  -0.47044E+02  -0.12930E+01  -0.13021E+01   0.85766E+01
   0.25000E+01  -0.47584E+02  -0.46328E+02  -0.15264E+01  -0.15341E+01   0.84637E+01
   0.26000E+01  -0.46801E+02  -0.45637E+02  -0.17788E+01  -0.17853E+01   0.83476E+01
   0.27000E+01  -0.46051E+02  -0.44986E+02  -0.20420E+01  -0.20473E+01   0.82283E+01
   0.28000E+01  -0.45343E+02  -0.44386E+02  -0.23075E+01  -0.23119E+01   0.81062E+01
   0.29000E+01  -0.44685E+02  -0.43841E+02  -0.25672E+01  -0.25708E+01   0.79816E+01
   0.30000E+01  -0.44074E+02  -0.43350E+02  -0.28129E+01  -0.28158E+01   0.78550E+01
   0.31000E+01  -0.43506E+02  -0.42905E+02  -0.30366E+01  -0.30390E+01   0.77266E+01
   0.32000E+01  -0.42967E+02  -0.42490E+02  -0.32306E+01  -0.32326E+01   0.75970E+01
   0.33000E+01  -0.42436E+02  -0.42083E+02  -0.33875E+01  -0.33891E+01   0.74666E+01
   0.34000E+01  -0.41885E+02  -0.41655E+02  -0.35005E+01  -0.35018E+01   0.73358E+01
   0.35000E+01  -0.41279E+02  -0.41166E+02  -0.35639E+01  -0.35649E+01   0.72052E+01
   0.36000E+01  -0.40574E+02  -0.40574E+02  -0.35734E+01  -0.35742E+01   0.70752E+01
   0.37000E+01  -0.39724E+02  -0.39830E+02  -0.35267E+01  -0.35273E+01   0.69464E+01
   0.38000E+01  -0.38678E+02  -0.38882E+02  -0.34240E+01  -0.34244E+01   0.68190E+01
   0.39000E+01  -0.37391E+02  -0.37682E+02  -0.32683E+01  -0.32685E+01   0.66936E+01
   0.40000E+01  -0.35826E+02  -0.36192E+02  -0.30654E+01  -0.30655E+01   0.65705E+01
   0.41000E+01  -0.33961E+02  -0.34391E+02  -0.28240E+01  -0.28240E+01   0.64499E+01
   0.42000E+01  -0.31799E+02  -0.32280E+02  -0.25551E+01  -0.25549E+01   0.63322E+01
   0.43000E+01  -0.29371E+02  -0.29887E+02  -0.22706E+01  -0.22703E+01   0.62173E+01
   0.44000E+01  -0.26733E+02  -0.27272E+02  -0.19827E+01  -0.19824E+01   0.61054E+01
   0.45000E+01  -0.23965E+02  -0.24512E+02  -0.17026E+01  -0.17023E+01   0.59966E+01
   0.46000E+01  -0.21158E+02  -0.21702E+02  -0.14395E+01  -0.14391E+01   0.58907E+01
   0.47000E+01  -0.18407E+02  -0.18937E+02  -0.11998E+01  -0.11994E+01   0.57878E+01
   0.48000E+01  -0.15792E+02  -0.16299E+02  -0.98743E+00  -0.98701E+00   0.56877E+01
   0.49000E+01  -0.13378E+02  -0.13856E+02  -0.80379E+00  -0.80338E+00   0.55905E+01
   0.50000E+01  -0.11207E+02  -0.11651E+02  -0.64825E+00  -0.64786E+00   0.54959E+01
   0.51000E+01  -0.92970E+01  -0.97045E+01  -0.51881E+00  -0.51844E+00   0.54039E+01
   0.52000E+01  -0.76495E+01  -0.80196E+01  -0.41267E+00  -0.41233E+00   0.53144E+01
   0.53000E+01  -0.62515E+01  -0.65844E+01  -0.32667E+00  -0.32635E+00   0.52273E+01
   0.54000E+01  -0.50810E+01  -0.53781E+01  -0.25765E+00  -0.25737E+00   0.51426E+01
   0.55000E+01  -0.41118E+01  -0.43751E+01  -0.20268E+00  -0.20243E+00   0.50602E+01
   0.56000E+01  -0.33164E+01  -0.35483E+01  -0.15916E+00  -0.15894E+00   0.49800E+01
   0.57000E+01  -0.26681E+01  -0.28714E+01  -0.12485E+00  -0.12465E+00   0.49019E+01
   0.58000E+01  -0.21427E+01  -0.23201E+01  -0.97889E-01  -0.97714E-01   0.48260E+01
   0.59000E+01  -0.17186E+01  -0.18728E+01  -0.76746E-01  -0.76593E-01   0.47520E+01
   0.60000E+01  -0.13774E+01  -0.15110E+01  -0.60190E-01  -0.60057E-01   0.46800E+01
   0.61000E+01  -0.11035E+01  -0.12189E+01  -0.47235E-01  -0.47120E-01   0.46099E+01
   0.62000E+01  -0.88396E+00  -0.98350E+00  -0.37100E-01  -0.37000E-01   0.45417E+01
   0.63000E+01  -0.70823E+00  -0.79385E+00  -0.29169E-01  -0.29083E-01   0.44752E+01
   0.64000E+01  -0.56764E+00  -0.64115E+00  -0.22960E-01  -0.22886E-01   0.44105E+01
   0.65000E+01  -0.45518E+00  -0.51820E+00  -0.18095E-01  -0.18032E-01   0.43474E+01
   0.66000E+01  -0.36523E+00  -0.41918E+00  -0.14280E-01  -0.14226E-01   0.42860E+01
   0.67000E+01  -0.29326E+00  -0.33940E+00  -0.11285E-01  -0.11238E-01   0.42261E+01
   0.68000E+01  -0.23566E+00  -0.27507E+00  -0.89300E-02  -0.88904E-02   0.41678E+01
   0.69000E+01  -0.18954E+00  -0.22317E+00  -0.70768E-02  -0.70431E-02   0.41109E+01
   0.70000E+01  -0.15257E+00  -0.18125E+00  -0.56162E-02  -0.55875E-02   0.40555E+01
   0.71000E+01  -0.12292E+00  -0.14737E+00  -0.44634E-02  -0.44391E-02   0.40014E+01
   0.72000E+01  -0.99131E-01  -0.11995E+00  -0.35523E-02  -0.35316E-02   0.39486E+01
   0.73000E+01  -0.80018E-01  -0.97742E-01  -0.28311E-02  -0.28136E-02   0.38971E+01
   0.74000E+01  -0.64650E-01  -0.79734E-01  -0.22595E-02  -0.22447E-02   0.38469E+01
   0.75000E+01  -0.52284E-01  -0.65115E-01  -0.18058E-02  -0.17933E-02   0.37979E+01
   0.76000E+01  -0.42323E-01  -0.53234E-01  -0.14452E-02  -0.14346E-02   0.37500E+01
   0.77000E+01  -0.34291E-01  -0.43568E-01  -0.11581E-02  -0.11491E-02   0.37033E+01
   0.78000E+01  -0.27810E-01  -0.35694E-01  -0.92927E-03  -0.92168E-03   0.36577E+01
   0.79000E+01  -0.22574E-01  -0.29275E-01  -0.74661E-03  -0.74020E-03   0.36131E+01
   0.80000E+01  -0.18341E-01  -0.24035E-01  -0.60061E-03  -0.59520E-03   0.35695E+01
   0.81000E+01  -0.14915E-01  -0.19752E-01  -0.48376E-03  -0.47920E-03   0.35269E+01
   0.82000E+01  -0.12140E-01  -0.16249E-01  -0.39012E-03  -0.38627E-03   0.34853E+01
   0.83000E+01  -0.98899E-02  -0.13380E-01  -0.31498E-03  -0.31173E-03   0.34447E+01
   0.84000E+01  -0.80638E-02  -0.11029E-01  -0.25461E-03  -0.25187E-03   0.34049E+01
   0.85000E+01  -0.65805E-02  -0.90989E-02  -0.20604E-03  -0.20374E-03   0.33660E+01
   0.86000E+01  -0.53746E-02  -0.75137E-02  -0.16693E-03  -0.16499E-03   0.33279E+01
   0.87000E+01  -0.43933E-02  -0.62102E-02  -0.13539E-03  -0.13375E-03   0.32906E+01
   0.88000E+01  -0.35941E-02  -0.51374E-02  -0.10993E-03  -0.10855E-03   0.32542E+01
   0.89000E+01  -0.29426E-02  -0.42536E-02  -0.89345E-04  -0.88185E-04   0.32185E+01
   0.90000E+01  -0.24112E-02  -0.35248E-02  -0.72693E-04  -0.71716E-04   0.31836E+01
   0.91000E+01  -0.19773E-02  -0.29233E-02  -0.59205E-04  -0.58382E-04   0.31494E+01
   0.92000E+01  -0.16227E-02  -0.24264E-02  -0.48267E-04  -0.47575E-04   0.31159E+01
   0.93000E+01  -0.13327E-02  -0.20155E-02  -0.39388E-04  -0.38806E-04   0.30830E+01
   0.94000E+01  -0.10954E-02  -0.16756E-02  -0.32173E-04  -0.31683E-04   0.30509E+01
   0.95000E+01  -0.90094E-03  -0.13940E-02  -0.26305E-04  -0.25892E-04   0.30194E+01
   0.96000E+01  -0.74158E-03  -0.11606E-02  -0.21526E-04  -0.21179E-04   0.29885E+01
   0.97000E+01  -0.61084E-03  -0.96698E-03  -0.17632E-04  -0.17339E-04   0.29582E+01
   0.98000E+01  -0.50351E-03  -0.80623E-03  -0.14455E-04  -0.14208E-04   0.29285E+01
   0.99000E+01  -0.41533E-03  -0.67267E-03  -0.11860E-04  -0.11653E-04   0.28994E+01
   0.10000E+02  -0.34283E-03  -0.56162E-03  -0.97397E-05  -0.95653E-05   0.28709E+01
   0.10100E+02  -0.28318E-03  -0.46922E-03  -0.80050E-05  -0.78582E-05   0.28429E+01
   0.10200E+02  -0.23406E-03  -0.39227E-03  -0.65847E-05  -0.64611E-05   0.28154E+01
   0.10300E+02  -0.19359E-03  -0.32815E-03  -0.54207E-05  -0.53166E-05   0.27884E+01
   0.10400E+02  -0.16023E-03  -0.27468E-03  -0.44660E-05  -0.43784E-05   0.27619E+01
   0.10500E+02  -0.13270E-03  -0.23006E-03  -0.36823E-05  -0.36085E-05   0.27360E+01
   0.10600E+02  -0.10997E-03  -0.19281E-03  -0.30384E-05  -0.29763E-05   0.27105E+01
   0.10700E+02  -0.91191E-04  -0.16168E-03  -0.25090E-05  -0.24567E-05   0.26854E+01
   0.10800E+02  -0.75667E-04  -0.13566E-03  -0.20734E-05  -0.20293E-05   0.26608E+01
   0.10900E+02  -0.62825E-04  -0.11389E-03  -0.17146E-05  -0.16775E-05   0.26367E+01
   0.11000E+02  -0.52194E-04  -0.95663E-04  -0.14189E-05  -0.13876E-05   0.26130E+01
   0.11100E+02  -0.43389E-04  -0.80398E-04  -0.11750E-05  -0.11487E-05   0.25897E+01
   0.11200E+02  -0.36090E-04  -0.67604E-04  -0.97375E-06  -0.95155E-06   0.25667E+01
   0.11300E+02  -0.30037E-04  -0.56875E-04  -0.80748E-06  -0.78877E-06   0.25442E+01
   0.11400E+02  -0.25014E-04  -0.47873E-04  -0.67005E-06  -0.65427E-06   0.25221E+01
   0.11500E+02  -0.20843E-04  -0.40316E-04  -0.55637E-06  -0.54307E-06   0.25004E+01
   0.11600E+02  -0.17378E-04  -0.33968E-04  -0.46227E-06  -0.45105E-06   0.24790E+01
   0.11700E+02  -0.14497E-04  -0.28634E-04  -0.38432E-06  -0.37487E-06   0.24580E+01
   0.11800E+02  -0.12100E-04  -0.24148E-04  -0.31972E-06  -0.31174E-06   0.24373E+01
   0.11900E+02  -0.10106E-04  -0.20375E-04  -0.26613E-06  -0.25941E-06   0.24169E+01
   0.12000E+02  -0.84443E-05  -0.17198E-04  -0.22166E-06  -0.21599E-06   0.23969E+01
   0.12100E+02  -0.70600E-05  -0.14524E-04  -0.18473E-06  -0.17994E-06   0.23773E+01
   0.12200E+02  -0.59059E-05  -0.12270E-04  -0.15404E-06  -0.15000E-06   0.23579E+01
   0.12300E+02  -0.49430E-05  -0.10371E-04  -0.12852E-06  -0.12511E-06   0.23388E+01
   0.12400E+02  -0.41393E-05  -0.87689E-05  -0.10729E-06  -0.10441E-06   0.23201E+01
   0.12500E+02  -0.34682E-05  -0.74176E-05  -0.89618E-07  -0.87187E-07   0.23016E+01
   0.12600E+02  -0.29073E-05  -0.62770E-05  -0.74896E-07  -0.72842E-07   0.22835E+01
   0.12700E+02  -0.24384E-05  -0.53138E-05  -0.62625E-07  -0.60890E-07   0.22656E+01
   0.12800E+02  -0.20462E-05  -0.45002E-05  -0.52392E-07  -0.50926E-07   0.22480E+01
   0.12900E+02  -0.17179E-05  -0.38126E-05  -0.43853E-07  -0.42615E-07   0.22306E+01
   0.13000E+02  -0.14430E-05  -0.32312E-05  -0.36725E-07  -0.35678E-07   0.22135E+01
   0.13100E+02  -0.12127E-05  -0.27395E-05  -0.30770E-07  -0.29886E-07   0.21967E+01
   0.13200E+02  -0.10197E-05  -0.23234E-05  -0.25794E-07  -0.25046E-07   0.21801E+01
   0.13300E+02  -0.85776E-06  -0.19712E-05  -0.21633E-07  -0.21001E-07   0.21638E+01
   0.13400E+02  -0.72190E-06  -0.16730E-05  -0.18151E-07  -0.17617E-07   0.21477E+01
   0.13500E+02  -0.60785E-06  -0.14203E-05  -0.15237E-07  -0.14785E-07   0.21319E+01
   0.13600E+02  -0.51205E-06  -0.12063E-05  -0.12797E-07  -0.12415E-07   0.21163E+01
   0.13700E+02  -0.43155E-06  -0.10248E-05  -0.10752E-07  -0.10429E-07   0.21009E+01
   0.13800E+02  -0.36387E-06  -0.87086E-06  -0.90383E-08  -0.87645E-08   0.20857E+01
   0.13900E+02  -0.30694E-06  -0.74029E-06  -0.76009E-08  -0.73691E-08   0.20707E+01
   0.14000E+02  -0.25904E-06  -0.62949E-06  -0.63948E-08  -0.61986E-08   0.20560E+01
   0.14100E+02  -0.21870E-06  -0.53544E-06  -0.53823E-08  -0.52162E-08   0.20415E+01
   0.14200E+02  -0.18473E-06  -0.45556E-06  -0.45320E-08  -0.43914E-08   0.20271E+01
   0.14300E+02  -0.15610E-06  -0.38772E-06  -0.38176E-08  -0.36985E-08   0.20130E+01
   0.14400E+02  -0.13196E-06  -0.33007E-06  -0.32171E-08  -0.31162E-08   0.19990E+01
   0.14500E+02  -0.11160E-06  -0.28106E-06  -0.27122E-08  -0.26266E-08   0.19853E+01
   0.14600E+02  -0.94418E-07  -0.23940E-06  -0.22873E-08  -0.22149E-08   0.19717E+01
   0.14700E+02  -0.79914E-07  -0.20396E-06  -0.19298E-08  -0.18684E-08   0.19583E+01
   0.14800E+02  -0.67665E-07  -0.17381E-06  -0.16287E-08  -0.15767E-08   0.19451E+01
   0.14900E+02  -0.57315E-07  -0.14816E-06  -0.13752E-08  -0.13310E-08   0.19321E+01
   0.15000E+02  -0.48566E-07  -0.12632E-06  -0.11615E-08  -0.11241E-08   0.19193E+01
   0.15100E+02  -0.41167E-07  -0.10772E-06  -0.98136E-09  -0.94963E-09   0.19066E+01
   0.15200E+02  -0.34908E-07  -0.91885E-07  -0.82946E-09  -0.80255E-09   0.18940E+01
   0.15300E+02  -0.29611E-07  -0.78391E-07  -0.70131E-09  -0.67848E-09   0.18817E+01
   0.15400E+02  -0.25126E-07  -0.66892E-07  -0.59316E-09  -0.57380E-09   0.18695E+01
   0.15500E+02  -0.21327E-07  -0.57090E-07  -0.50186E-09  -0.48542E-09   0.18575E+01
   0.15600E+02  -0.18108E-07  -0.48732E-07  -0.42474E-09  -0.41080E-09   0.18456E+01
   0.15700E+02  -0.15380E-07  -0.41605E-07  -0.35959E-09  -0.34776E-09   0.18338E+01
   0.15800E+02  -0.13066E-07  -0.35525E-07  -0.30453E-09  -0.29449E-09   0.18222E+01
   0.15900E+02  -0.11103E-07  -0.30337E-07  -0.25798E-09  -0.24946E-09   0.18108E+01
   0.16000E+02  -0.94378E-08  -0.25909E-07  -0.21861E-09  -0.21138E-09   0.17995E+01
   0.16100E+02  -0.80239E-08  -0.22130E-07  -0.18530E-09  -0.17916E-09   0.17883E+01
   0.16200E+02  -0.68231E-08  -0.18902E-07  -0.15711E-09  -0.15190E-09   0.17773E+01
   0.16300E+02  -0.58031E-08  -0.16146E-07  -0.13325E-09  -0.12883E-09   0.17664E+01
   0.16400E+02  -0.49363E-08  -0.13792E-07  -0.11304E-09  -0.10929E-09   0.17557E+01
   0.16500E+02  -0.41994E-08  -0.11780E-07  -0.95922E-10  -0.92741E-10   0.17450E+01
   0.16600E+02  -0.35728E-08  -0.10061E-07  -0.81416E-10  -0.78717E-10   0.17345E+01
   0.16700E+02  -0.30398E-08  -0.85919E-08  -0.69121E-10  -0.66832E-10   0.17242E+01
   0.16800E+02  -0.25863E-08  -0.73358E-08  -0.58695E-10  -0.56755E-10   0.17139E+01
   0.16900E+02  -0.22003E-08  -0.62618E-08  -0.49853E-10  -0.48209E-10   0.17038E+01
   0.17000E+02  -0.18716E-08  -0.53433E-08  -0.42352E-10  -0.40959E-10   0.16938E+01
   0.17100E+02  -0.15918E-08  -0.45577E-08  -0.35986E-10  -0.34806E-10   0.16839E+01
   0.17200E+02  -0.13534E-08  -0.38857E-08  -0.30582E-10  -0.29584E-10   0.16741E+01
   0.17300E+02  -0.11502E-08  -0.33108E-08  -0.25993E-10  -0.25150E-10   0.16644E+01
   0.17400E+02  -0.97710E-09  -0.28188E-08  -0.22095E-10  -0.21383E-10   0.16549E+01
   0.17500E+02  -0.82953E-09  -0.23978E-08  -0.18784E-10  -0.18183E-10   0.16454E+01
   0.17600E+02  -0.70372E-09  -0.20376E-08  -0.15969E-10  -0.15463E-10   0.16361E+01
   0.17700E+02  -0.59644E-09  -0.17293E-08  -0.13577E-10  -0.13151E-10   0.16268E+01
   0.17800E+02  -0.50496E-09  -0.14655E-08  -0.11542E-10  -0.11185E-10   0.16177E+01
   0.17900E+02  -0.42695E-09  -0.12397E-08  -0.98107E-11  -0.95114E-11   0.16087E+01
   0.18000E+02  -0.36042E-09  -0.10466E-08  -0.83374E-11  -0.80873E-11   0.15997E+01
   0.18100E+02  -0.30369E-09  -0.88143E-09  -0.70830E-11  -0.68747E-11   0.15909E+01
   0.18200E+02  -0.25534E-09  -0.74019E-09  -0.60144E-11  -0.58415E-11   0.15822E+01
   0.18300E+02  -0.21413E-09  -0.61949E-09  -0.51035E-11  -0.49607E-11   0.15735E+01
   0.18400E+02  -0.17903E-09  -0.51642E-09  -0.43266E-11  -0.42093E-11   0.15650E+01
   0.18500E+02  -0.14916E-09  -0.42849E-09  -0.36634E-11  -0.35675E-11   0.15565E+01
   0.18600E+02  -0.12377E-09  -0.35358E-09  -0.30967E-11  -0.30189E-11   0.15482E+01
   0.18700E+02  -0.10222E-09  -0.28987E-09  -0.26117E-11  -0.25493E-11   0.15399E+01
   0.18800E+02  -0.83971E-10  -0.23582E-09  -0.21960E-11  -0.21464E-11   0.15317E+01
   0.18900E+02  -0.68563E-10  -0.19012E-09  -0.18390E-11  -0.18001E-11   0.15236E+01
   0.19000E+02  -0.55607E-10  -0.15164E-09  -0.15315E-11  -0.15015E-11   0.15156E+01
   0.19100E+02  -0.44774E-10  -0.11945E-09  -0.12657E-11  -0.12431E-11   0.15077E+01
   0.19200E+02  -0.35786E-10  -0.92739E-10  -0.10349E-11  -0.10184E-11   0.14998E+01
   0.19300E+02  -0.28413E-10  -0.70841E-10  -0.83341E-12  -0.82173E-12   0.14920E+01
   0.19400E+02  -0.22461E-10  -0.53195E-10  -0.65619E-12  -0.64838E-12   0.14844E+01
   0.19500E+02  -0.17771E-10  -0.39337E-10  -0.49893E-12  -0.49410E-12   0.14767E+01
   0.19600E+02  -0.14190E-10  -0.28829E-10  -0.35784E-12  -0.35521E-12   0.14692E+01
   0.19700E+02  -0.11936E-10  -0.22248E-10  -0.22959E-12  -0.22845E-12   0.14618E+01
   0.19800E+02  -0.10614E-10  -0.16656E-10  -0.10669E-12  -0.10642E-12   0.14544E+01
   0.19900E+02  -0.53890E-11  -0.88861E-11  -0.13450E-13  -0.13450E-13   0.14471E+01
   0.20000E+02   0.47218E-12   0.13400E-10  -0.47857E-14  -0.47857E-14   0.14399E+01
