# r     V(p)     V(n)     m*(p)/m     m*(n)/m    VC 
   0.10000E+00  -0.46451E+02  -0.46451E+02   0.00000E+00   0.00000E+00   0.11442E+02
   0.20000E+00  -0.46705E+02  -0.46705E+02   0.00000E+00   0.00000E+00   0.11431E+02
   0.30000E+00  -0.47105E+02  -0.47105E+02   0.00000E+00   0.00000E+00   0.11413E+02
   0.40000E+00  -0.47628E+02  -0.47628E+02   0.00000E+00   0.00000E+00   0.11388E+02
   0.50000E+00  -0.48241E+02  -0.48241E+02   0.00000E+00   0.00000E+00   0.11356E+02
   0.60000E+00  -0.48904E+02  -0.48904E+02   0.00000E+00   0.00000E+00   0.11318E+02
   0.70000E+00  -0.49578E+02  -0.49578E+02   0.00000E+00   0.00000E+00   0.11273E+02
   0.80000E+00  -0.50224E+02  -0.50224E+02   0.00000E+00   0.00000E+00   0.11222E+02
   0.90000E+00  -0.50809E+02  -0.50809E+02   0.00000E+00   0.00000E+00   0.11165E+02
   0.10000E+01  -0.51311E+02  -0.51311E+02   0.00000E+00   0.00000E+00   0.11103E+02
   0.11000E+01  -0.51718E+02  -0.51718E+02   0.00000E+00   0.00000E+00   0.11036E+02
   0.12000E+01  -0.52028E+02  -0.52028E+02   0.00000E+00   0.00000E+00   0.10963E+02
   0.13000E+01  -0.52251E+02  -0.52251E+02   0.00000E+00   0.00000E+00   0.10886E+02
   0.14000E+01  -0.52399E+02  -0.52399E+02   0.00000E+00   0.00000E+00   0.10804E+02
   0.15000E+01  -0.52487E+02  -0.52487E+02   0.00000E+00   0.00000E+00   0.10718E+02
   0.16000E+01  -0.52530E+02  -0.52530E+02   0.00000E+00   0.00000E+00   0.10627E+02
   0.17000E+01  -0.52535E+02  -0.52535E+02   0.00000E+00   0.00000E+00   0.10532E+02
   0.18000E+01  -0.52510E+02  -0.52510E+02   0.00000E+00   0.00000E+00   0.10431E+02
   0.19000E+01  -0.52459E+02  -0.52459E+02   0.00000E+00   0.00000E+00   0.10326E+02
   0.20000E+01  -0.52387E+02  -0.52387E+02   0.00000E+00   0.00000E+00   0.10215E+02
   0.21000E+01  -0.52305E+02  -0.52305E+02   0.00000E+00   0.00000E+00   0.10100E+02
   0.22000E+01  -0.52227E+02  -0.52227E+02   0.00000E+00   0.00000E+00   0.99784E+01
   0.23000E+01  -0.52170E+02  -0.52170E+02   0.00000E+00   0.00000E+00   0.98515E+01
   0.24000E+01  -0.52155E+02  -0.52155E+02   0.00000E+00   0.00000E+00   0.97189E+01
   0.25000E+01  -0.52198E+02  -0.52198E+02   0.00000E+00   0.00000E+00   0.95806E+01
   0.26000E+01  -0.52305E+02  -0.52305E+02   0.00000E+00   0.00000E+00   0.94365E+01
   0.27000E+01  -0.52467E+02  -0.52467E+02   0.00000E+00   0.00000E+00   0.92870E+01
   0.28000E+01  -0.52655E+02  -0.52655E+02   0.00000E+00   0.00000E+00   0.91323E+01
   0.29000E+01  -0.52810E+02  -0.52810E+02   0.00000E+00   0.00000E+00   0.89728E+01
   0.30000E+01  -0.52851E+02  -0.52851E+02   0.00000E+00   0.00000E+00   0.88091E+01
   0.31000E+01  -0.52670E+02  -0.52670E+02   0.00000E+00   0.00000E+00   0.86419E+01
   0.32000E+01  -0.52147E+02  -0.52147E+02   0.00000E+00   0.00000E+00   0.84718E+01
   0.33000E+01  -0.51167E+02  -0.51167E+02   0.00000E+00   0.00000E+00   0.82998E+01
   0.34000E+01  -0.49636E+02  -0.49636E+02   0.00000E+00   0.00000E+00   0.81268E+01
   0.35000E+01  -0.47503E+02  -0.47503E+02   0.00000E+00   0.00000E+00   0.79537E+01
   0.36000E+01  -0.44775E+02  -0.44775E+02   0.00000E+00   0.00000E+00   0.77813E+01
   0.37000E+01  -0.41520E+02  -0.41520E+02   0.00000E+00   0.00000E+00   0.76107E+01
   0.38000E+01  -0.37859E+02  -0.37859E+02   0.00000E+00   0.00000E+00   0.74424E+01
   0.39000E+01  -0.33946E+02  -0.33946E+02   0.00000E+00   0.00000E+00   0.72773E+01
   0.40000E+01  -0.29951E+02  -0.29951E+02   0.00000E+00   0.00000E+00   0.71158E+01
   0.41000E+01  -0.26028E+02  -0.26028E+02   0.00000E+00   0.00000E+00   0.69585E+01
   0.42000E+01  -0.22306E+02  -0.22306E+02   0.00000E+00   0.00000E+00   0.68056E+01
   0.43000E+01  -0.18881E+02  -0.18881E+02   0.00000E+00   0.00000E+00   0.66574E+01
   0.44000E+01  -0.15808E+02  -0.15808E+02   0.00000E+00   0.00000E+00   0.65140E+01
   0.45000E+01  -0.13110E+02  -0.13110E+02   0.00000E+00   0.00000E+00   0.63754E+01
   0.46000E+01  -0.10785E+02  -0.10785E+02   0.00000E+00   0.00000E+00   0.62416E+01
   0.47000E+01  -0.88119E+01  -0.88119E+01   0.00000E+00   0.00000E+00   0.61125E+01
   0.48000E+01  -0.71592E+01  -0.71592E+01   0.00000E+00   0.00000E+00   0.59881E+01
   0.49000E+01  -0.57894E+01  -0.57894E+01   0.00000E+00   0.00000E+00   0.58681E+01
   0.50000E+01  -0.46640E+01  -0.46640E+01   0.00000E+00   0.00000E+00   0.57525E+01
   0.51000E+01  -0.37458E+01  -0.37458E+01   0.00000E+00   0.00000E+00   0.56411E+01
   0.52000E+01  -0.30011E+01  -0.30011E+01   0.00000E+00   0.00000E+00   0.55337E+01
   0.53000E+01  -0.23999E+01  -0.23999E+01   0.00000E+00   0.00000E+00   0.54301E+01
   0.54000E+01  -0.19163E+01  -0.19163E+01   0.00000E+00   0.00000E+00   0.53302E+01
   0.55000E+01  -0.15285E+01  -0.15285E+01   0.00000E+00   0.00000E+00   0.52338E+01
   0.56000E+01  -0.12183E+01  -0.12183E+01   0.00000E+00   0.00000E+00   0.51408E+01
   0.57000E+01  -0.97045E+00  -0.97045E+00   0.00000E+00   0.00000E+00   0.50509E+01
   0.58000E+01  -0.77280E+00  -0.77280E+00   0.00000E+00   0.00000E+00   0.49640E+01
   0.59000E+01  -0.61531E+00  -0.61531E+00   0.00000E+00   0.00000E+00   0.48801E+01
   0.60000E+01  -0.48992E+00  -0.48992E+00   0.00000E+00   0.00000E+00   0.47989E+01
   0.61000E+01  -0.39012E+00  -0.39012E+00   0.00000E+00   0.00000E+00   0.47204E+01
   0.62000E+01  -0.31071E+00  -0.31071E+00   0.00000E+00   0.00000E+00   0.46443E+01
   0.63000E+01  -0.24754E+00  -0.24754E+00   0.00000E+00   0.00000E+00   0.45707E+01
   0.64000E+01  -0.19728E+00  -0.19728E+00   0.00000E+00   0.00000E+00   0.44993E+01
   0.65000E+01  -0.15729E+00  -0.15729E+00   0.00000E+00   0.00000E+00   0.44301E+01
   0.66000E+01  -0.12546E+00  -0.12546E+00   0.00000E+00   0.00000E+00   0.43631E+01
   0.67000E+01  -0.10012E+00  -0.10012E+00   0.00000E+00   0.00000E+00   0.42980E+01
   0.68000E+01  -0.79933E-01  -0.79933E-01   0.00000E+00   0.00000E+00   0.42348E+01
   0.69000E+01  -0.63852E-01  -0.63852E-01   0.00000E+00   0.00000E+00   0.41734E+01
   0.70000E+01  -0.51034E-01  -0.51034E-01   0.00000E+00   0.00000E+00   0.41138E+01
   0.71000E+01  -0.40811E-01  -0.40811E-01   0.00000E+00   0.00000E+00   0.40559E+01
   0.72000E+01  -0.32654E-01  -0.32654E-01   0.00000E+00   0.00000E+00   0.39996E+01
   0.73000E+01  -0.26141E-01  -0.26141E-01   0.00000E+00   0.00000E+00   0.39448E+01
   0.74000E+01  -0.20940E-01  -0.20940E-01   0.00000E+00   0.00000E+00   0.38915E+01
   0.75000E+01  -0.16783E-01  -0.16783E-01   0.00000E+00   0.00000E+00   0.38396E+01
   0.76000E+01  -0.13458E-01  -0.13458E-01   0.00000E+00   0.00000E+00   0.37891E+01
   0.77000E+01  -0.10798E-01  -0.10798E-01   0.00000E+00   0.00000E+00   0.37399E+01
   0.78000E+01  -0.86691E-02  -0.86691E-02   0.00000E+00   0.00000E+00   0.36919E+01
   0.79000E+01  -0.69634E-02  -0.69634E-02   0.00000E+00   0.00000E+00   0.36452E+01
   0.80000E+01  -0.55964E-02  -0.55964E-02   0.00000E+00   0.00000E+00   0.35996E+01
   0.81000E+01  -0.45002E-02  -0.45002E-02   0.00000E+00   0.00000E+00   0.35552E+01
   0.82000E+01  -0.36206E-02  -0.36206E-02   0.00000E+00   0.00000E+00   0.35118E+01
   0.83000E+01  -0.29145E-02  -0.29145E-02   0.00000E+00   0.00000E+00   0.34695E+01
   0.84000E+01  -0.23473E-02  -0.23473E-02   0.00000E+00   0.00000E+00   0.34282E+01
   0.85000E+01  -0.18914E-02  -0.18914E-02   0.00000E+00   0.00000E+00   0.33879E+01
   0.86000E+01  -0.15249E-02  -0.15249E-02   0.00000E+00   0.00000E+00   0.33485E+01
   0.87000E+01  -0.12299E-02  -0.12299E-02   0.00000E+00   0.00000E+00   0.33100E+01
   0.88000E+01  -0.99255E-03  -0.99255E-03   0.00000E+00   0.00000E+00   0.32724E+01
   0.89000E+01  -0.80136E-03  -0.80136E-03   0.00000E+00   0.00000E+00   0.32356E+01
   0.90000E+01  -0.64730E-03  -0.64730E-03   0.00000E+00   0.00000E+00   0.31997E+01
   0.91000E+01  -0.52310E-03  -0.52310E-03   0.00000E+00   0.00000E+00   0.31645E+01
   0.92000E+01  -0.42292E-03  -0.42292E-03   0.00000E+00   0.00000E+00   0.31301E+01
   0.93000E+01  -0.34208E-03  -0.34208E-03   0.00000E+00   0.00000E+00   0.30965E+01
   0.94000E+01  -0.27681E-03  -0.27681E-03   0.00000E+00   0.00000E+00   0.30635E+01
   0.95000E+01  -0.22409E-03  -0.22409E-03   0.00000E+00   0.00000E+00   0.30313E+01
   0.96000E+01  -0.18149E-03  -0.18149E-03   0.00000E+00   0.00000E+00   0.29997E+01
   0.97000E+01  -0.14705E-03  -0.14705E-03   0.00000E+00   0.00000E+00   0.29688E+01
   0.98000E+01  -0.11919E-03  -0.11919E-03   0.00000E+00   0.00000E+00   0.29385E+01
   0.99000E+01  -0.96648E-04  -0.96648E-04   0.00000E+00   0.00000E+00   0.29088E+01
   0.10000E+02  -0.78400E-04  -0.78400E-04   0.00000E+00   0.00000E+00   0.28797E+01
   0.10100E+02  -0.63622E-04  -0.63622E-04   0.00000E+00   0.00000E+00   0.28512E+01
   0.10200E+02  -0.51648E-04  -0.51648E-04   0.00000E+00   0.00000E+00   0.28233E+01
   0.10300E+02  -0.41944E-04  -0.41944E-04   0.00000E+00   0.00000E+00   0.27958E+01
   0.10400E+02  -0.34075E-04  -0.34075E-04   0.00000E+00   0.00000E+00   0.27690E+01
   0.10500E+02  -0.27692E-04  -0.27692E-04   0.00000E+00   0.00000E+00   0.27426E+01
   0.10600E+02  -0.22513E-04  -0.22513E-04   0.00000E+00   0.00000E+00   0.27167E+01
   0.10700E+02  -0.18308E-04  -0.18308E-04   0.00000E+00   0.00000E+00   0.26913E+01
   0.10800E+02  -0.14894E-04  -0.14894E-04   0.00000E+00   0.00000E+00   0.26664E+01
   0.10900E+02  -0.12121E-04  -0.12121E-04   0.00000E+00   0.00000E+00   0.26419E+01
   0.11000E+02  -0.98667E-05  -0.98667E-05   0.00000E+00   0.00000E+00   0.26179E+01
   0.11100E+02  -0.80344E-05  -0.80344E-05   0.00000E+00   0.00000E+00   0.25943E+01
   0.11200E+02  -0.65445E-05  -0.65445E-05   0.00000E+00   0.00000E+00   0.25712E+01
   0.11300E+02  -0.53324E-05  -0.53324E-05   0.00000E+00   0.00000E+00   0.25484E+01
   0.11400E+02  -0.43461E-05  -0.43461E-05   0.00000E+00   0.00000E+00   0.25261E+01
   0.11500E+02  -0.35433E-05  -0.35433E-05   0.00000E+00   0.00000E+00   0.25041E+01
   0.11600E+02  -0.28896E-05  -0.28896E-05   0.00000E+00   0.00000E+00   0.24825E+01
   0.11700E+02  -0.23572E-05  -0.23572E-05   0.00000E+00   0.00000E+00   0.24613E+01
   0.11800E+02  -0.19234E-05  -0.19234E-05   0.00000E+00   0.00000E+00   0.24404E+01
   0.11900E+02  -0.15698E-05  -0.15698E-05   0.00000E+00   0.00000E+00   0.24199E+01
   0.12000E+02  -0.12816E-05  -0.12816E-05   0.00000E+00   0.00000E+00   0.23998E+01
   0.12100E+02  -0.10466E-05  -0.10466E-05   0.00000E+00   0.00000E+00   0.23799E+01
   0.12200E+02  -0.85488E-06  -0.85488E-06   0.00000E+00   0.00000E+00   0.23604E+01
   0.12300E+02  -0.69846E-06  -0.69846E-06   0.00000E+00   0.00000E+00   0.23412E+01
   0.12400E+02  -0.57080E-06  -0.57080E-06   0.00000E+00   0.00000E+00   0.23224E+01
   0.12500E+02  -0.46659E-06  -0.46659E-06   0.00000E+00   0.00000E+00   0.23038E+01
   0.12600E+02  -0.38149E-06  -0.38149E-06   0.00000E+00   0.00000E+00   0.22855E+01
   0.12700E+02  -0.31199E-06  -0.31199E-06   0.00000E+00   0.00000E+00   0.22675E+01
   0.12800E+02  -0.25520E-06  -0.25520E-06   0.00000E+00   0.00000E+00   0.22498E+01
   0.12900E+02  -0.20880E-06  -0.20880E-06   0.00000E+00   0.00000E+00   0.22323E+01
   0.13000E+02  -0.17088E-06  -0.17088E-06   0.00000E+00   0.00000E+00   0.22152E+01
   0.13100E+02  -0.13987E-06  -0.13987E-06   0.00000E+00   0.00000E+00   0.21983E+01
   0.13200E+02  -0.11451E-06  -0.11451E-06   0.00000E+00   0.00000E+00   0.21816E+01
   0.13300E+02  -0.93770E-07  -0.93770E-07   0.00000E+00   0.00000E+00   0.21652E+01
   0.13400E+02  -0.76802E-07  -0.76802E-07   0.00000E+00   0.00000E+00   0.21490E+01
   0.13500E+02  -0.62917E-07  -0.62917E-07   0.00000E+00   0.00000E+00   0.21331E+01
   0.13600E+02  -0.51552E-07  -0.51552E-07   0.00000E+00   0.00000E+00   0.21174E+01
   0.13700E+02  -0.42248E-07  -0.42248E-07   0.00000E+00   0.00000E+00   0.21020E+01
   0.13800E+02  -0.34630E-07  -0.34630E-07   0.00000E+00   0.00000E+00   0.20868E+01
   0.13900E+02  -0.28391E-07  -0.28391E-07   0.00000E+00   0.00000E+00   0.20717E+01
   0.14000E+02  -0.23280E-07  -0.23280E-07   0.00000E+00   0.00000E+00   0.20569E+01
   0.14100E+02  -0.19092E-07  -0.19092E-07   0.00000E+00   0.00000E+00   0.20424E+01
   0.14200E+02  -0.15661E-07  -0.15661E-07   0.00000E+00   0.00000E+00   0.20280E+01
   0.14300E+02  -0.12848E-07  -0.12848E-07   0.00000E+00   0.00000E+00   0.20138E+01
   0.14400E+02  -0.10543E-07  -0.10543E-07   0.00000E+00   0.00000E+00   0.19998E+01
   0.14500E+02  -0.86522E-08  -0.86522E-08   0.00000E+00   0.00000E+00   0.19860E+01
   0.14600E+02  -0.71018E-08  -0.71018E-08   0.00000E+00   0.00000E+00   0.19724E+01
   0.14700E+02  -0.58302E-08  -0.58302E-08   0.00000E+00   0.00000E+00   0.19590E+01
   0.14800E+02  -0.47870E-08  -0.47870E-08   0.00000E+00   0.00000E+00   0.19458E+01
   0.14900E+02  -0.39310E-08  -0.39310E-08   0.00000E+00   0.00000E+00   0.19327E+01
   0.15000E+02  -0.32286E-08  -0.32286E-08   0.00000E+00   0.00000E+00   0.19198E+01
   0.15100E+02  -0.26520E-08  -0.26520E-08   0.00000E+00   0.00000E+00   0.19071E+01
   0.15200E+02  -0.21787E-08  -0.21787E-08   0.00000E+00   0.00000E+00   0.18946E+01
   0.15300E+02  -0.17902E-08  -0.17902E-08   0.00000E+00   0.00000E+00   0.18822E+01
   0.15400E+02  -0.14711E-08  -0.14711E-08   0.00000E+00   0.00000E+00   0.18699E+01
   0.15500E+02  -0.12090E-08  -0.12090E-08   0.00000E+00   0.00000E+00   0.18579E+01
   0.15600E+02  -0.99373E-09  -0.99373E-09   0.00000E+00   0.00000E+00   0.18460E+01
   0.15700E+02  -0.81688E-09  -0.81688E-09   0.00000E+00   0.00000E+00   0.18342E+01
   0.15800E+02  -0.67157E-09  -0.67157E-09   0.00000E+00   0.00000E+00   0.18226E+01
   0.15900E+02  -0.55216E-09  -0.55216E-09   0.00000E+00   0.00000E+00   0.18111E+01
   0.16000E+02  -0.45402E-09  -0.45402E-09   0.00000E+00   0.00000E+00   0.17998E+01
   0.16100E+02  -0.37335E-09  -0.37335E-09   0.00000E+00   0.00000E+00   0.17886E+01
   0.16200E+02  -0.30703E-09  -0.30703E-09   0.00000E+00   0.00000E+00   0.17776E+01
   0.16300E+02  -0.25251E-09  -0.25251E-09   0.00000E+00   0.00000E+00   0.17667E+01
   0.16400E+02  -0.20767E-09  -0.20767E-09   0.00000E+00   0.00000E+00   0.17559E+01
   0.16500E+02  -0.17079E-09  -0.17079E-09   0.00000E+00   0.00000E+00   0.17453E+01
   0.16600E+02  -0.14046E-09  -0.14046E-09   0.00000E+00   0.00000E+00   0.17348E+01
   0.16700E+02  -0.11551E-09  -0.11551E-09   0.00000E+00   0.00000E+00   0.17244E+01
   0.16800E+02  -0.94983E-10  -0.94983E-10   0.00000E+00   0.00000E+00   0.17141E+01
   0.16900E+02  -0.78095E-10  -0.78095E-10   0.00000E+00   0.00000E+00   0.17040E+01
   0.17000E+02  -0.64198E-10  -0.64198E-10   0.00000E+00   0.00000E+00   0.16940E+01
   0.17100E+02  -0.52761E-10  -0.52761E-10   0.00000E+00   0.00000E+00   0.16840E+01
   0.17200E+02  -0.43348E-10  -0.43348E-10   0.00000E+00   0.00000E+00   0.16743E+01
   0.17300E+02  -0.35601E-10  -0.35601E-10   0.00000E+00   0.00000E+00   0.16646E+01
   0.17400E+02  -0.29224E-10  -0.29224E-10   0.00000E+00   0.00000E+00   0.16550E+01
   0.17500E+02  -0.23974E-10  -0.23974E-10   0.00000E+00   0.00000E+00   0.16456E+01
   0.17600E+02  -0.19652E-10  -0.19652E-10   0.00000E+00   0.00000E+00   0.16362E+01
   0.17700E+02  -0.16095E-10  -0.16095E-10   0.00000E+00   0.00000E+00   0.16270E+01
   0.17800E+02  -0.13165E-10  -0.13165E-10   0.00000E+00   0.00000E+00   0.16178E+01
   0.17900E+02  -0.10754E-10  -0.10754E-10   0.00000E+00   0.00000E+00   0.16088E+01
   0.18000E+02  -0.87688E-11  -0.87688E-11   0.00000E+00   0.00000E+00   0.15998E+01
   0.18100E+02  -0.71348E-11  -0.71348E-11   0.00000E+00   0.00000E+00   0.15910E+01
   0.18200E+02  -0.57900E-11  -0.57900E-11   0.00000E+00   0.00000E+00   0.15823E+01
   0.18300E+02  -0.46836E-11  -0.46836E-11   0.00000E+00   0.00000E+00   0.15736E+01
   0.18400E+02  -0.37736E-11  -0.37736E-11   0.00000E+00   0.00000E+00   0.15651E+01
   0.18500E+02  -0.30256E-11  -0.30256E-11   0.00000E+00   0.00000E+00   0.15566E+01
   0.18600E+02  -0.24112E-11  -0.24112E-11   0.00000E+00   0.00000E+00   0.15482E+01
   0.18700E+02  -0.19072E-11  -0.19072E-11   0.00000E+00   0.00000E+00   0.15400E+01
   0.18800E+02  -0.14943E-11  -0.14943E-11   0.00000E+00   0.00000E+00   0.15318E+01
   0.18900E+02  -0.11569E-11  -0.11569E-11   0.00000E+00   0.00000E+00   0.15237E+01
   0.19000E+02  -0.88206E-12  -0.88206E-12   0.00000E+00   0.00000E+00   0.15156E+01
   0.19100E+02  -0.65924E-12  -0.65924E-12   0.00000E+00   0.00000E+00   0.15077E+01
   0.19200E+02  -0.47984E-12  -0.47984E-12   0.00000E+00   0.00000E+00   0.14999E+01
   0.19300E+02  -0.33689E-12  -0.33689E-12   0.00000E+00   0.00000E+00   0.14921E+01
   0.19400E+02  -0.22475E-12  -0.22475E-12   0.00000E+00   0.00000E+00   0.14844E+01
   0.19500E+02  -0.13892E-12  -0.13892E-12   0.00000E+00   0.00000E+00   0.14768E+01
   0.19600E+02  -0.75883E-13  -0.75883E-13   0.00000E+00   0.00000E+00   0.14692E+01
   0.19700E+02  -0.32931E-13  -0.32931E-13   0.00000E+00   0.00000E+00   0.14618E+01
   0.19800E+02  -0.80837E-14  -0.80837E-14   0.00000E+00   0.00000E+00   0.14544E+01
   0.19900E+02   0.00000E+00   0.00000E+00   0.00000E+00   0.00000E+00   0.14471E+01
   0.20000E+02   0.00000E+00   0.00000E+00   0.00000E+00   0.00000E+00   0.14399E+01
