# r     V(p)     V(n)     m*(p)/m     m*(n)/m    VC 
   0.10000E+00  -0.59397E+02  -0.58119E+02   0.55007E+01   0.55007E+01   0.49902E+01
   0.20000E+00  -0.59396E+02  -0.58126E+02   0.58323E+01   0.58323E+01   0.49827E+01
   0.30000E+00  -0.58605E+02  -0.57354E+02   0.55134E+01   0.55134E+01   0.49702E+01
   0.40000E+00  -0.57614E+02  -0.56384E+02   0.49992E+01   0.49992E+01   0.49528E+01
   0.50000E+00  -0.56437E+02  -0.55229E+02   0.43704E+01   0.43704E+01   0.49305E+01
   0.60000E+00  -0.55114E+02  -0.53929E+02   0.36570E+01   0.36570E+01   0.49033E+01
   0.70000E+00  -0.53705E+02  -0.52542E+02   0.28880E+01   0.28880E+01   0.48715E+01
   0.80000E+00  -0.52255E+02  -0.51114E+02   0.20879E+01   0.20879E+01   0.48350E+01
   0.90000E+00  -0.50808E+02  -0.49688E+02   0.12781E+01   0.12781E+01   0.47939E+01
   0.10000E+01  -0.49400E+02  -0.48301E+02   0.47671E+00   0.47671E+00   0.47483E+01
   0.11000E+01  -0.48058E+02  -0.46984E+02  -0.30237E+00  -0.30237E+00   0.46984E+01
   0.12000E+01  -0.46805E+02  -0.45758E+02  -0.10484E+01  -0.10484E+01   0.46442E+01
   0.13000E+01  -0.45657E+02  -0.44642E+02  -0.17535E+01  -0.17535E+01   0.45859E+01
   0.14000E+01  -0.44622E+02  -0.43648E+02  -0.24122E+01  -0.24122E+01   0.45237E+01
   0.15000E+01  -0.43708E+02  -0.42781E+02  -0.30202E+01  -0.30202E+01   0.44579E+01
   0.16000E+01  -0.42914E+02  -0.42042E+02  -0.35743E+01  -0.35743E+01   0.43885E+01
   0.17000E+01  -0.42237E+02  -0.41429E+02  -0.40717E+01  -0.40717E+01   0.43161E+01
   0.18000E+01  -0.41672E+02  -0.40932E+02  -0.45093E+01  -0.45093E+01   0.42407E+01
   0.19000E+01  -0.41204E+02  -0.40539E+02  -0.48837E+01  -0.48837E+01   0.41630E+01
   0.20000E+01  -0.40819E+02  -0.40231E+02  -0.51911E+01  -0.51911E+01   0.40832E+01
   0.21000E+01  -0.40493E+02  -0.39985E+02  -0.54274E+01  -0.54274E+01   0.40018E+01
   0.22000E+01  -0.40197E+02  -0.39769E+02  -0.55883E+01  -0.55883E+01   0.39192E+01
   0.23000E+01  -0.39895E+02  -0.39546E+02  -0.56697E+01  -0.56697E+01   0.38360E+01
   0.24000E+01  -0.39542E+02  -0.39272E+02  -0.56687E+01  -0.56687E+01   0.37526E+01
   0.25000E+01  -0.39089E+02  -0.38894E+02  -0.55839E+01  -0.55839E+01   0.36696E+01
   0.26000E+01  -0.38479E+02  -0.38355E+02  -0.54163E+01  -0.54163E+01   0.35873E+01
   0.27000E+01  -0.37655E+02  -0.37596E+02  -0.51702E+01  -0.51702E+01   0.35062E+01
   0.28000E+01  -0.36560E+02  -0.36562E+02  -0.48535E+01  -0.48535E+01   0.34268E+01
   0.29000E+01  -0.35152E+02  -0.35207E+02  -0.44778E+01  -0.44778E+01   0.33492E+01
   0.30000E+01  -0.33403E+02  -0.33506E+02  -0.40580E+01  -0.40580E+01   0.32739E+01
   0.31000E+01  -0.31316E+02  -0.31457E+02  -0.36116E+01  -0.36116E+01   0.32008E+01
   0.32000E+01  -0.28923E+02  -0.29094E+02  -0.31567E+01  -0.31567E+01   0.31302E+01
   0.33000E+01  -0.26288E+02  -0.26481E+02  -0.27109E+01  -0.27109E+01   0.30621E+01
   0.34000E+01  -0.23501E+02  -0.23709E+02  -0.22891E+01  -0.22891E+01   0.29963E+01
   0.35000E+01  -0.20667E+02  -0.20882E+02  -0.19030E+01  -0.19030E+01   0.29330E+01
   0.36000E+01  -0.17890E+02  -0.18104E+02  -0.15596E+01  -0.15596E+01   0.28719E+01
   0.37000E+01  -0.15259E+02  -0.15468E+02  -0.12624E+01  -0.12624E+01   0.28130E+01
   0.38000E+01  -0.12843E+02  -0.13043E+02  -0.10108E+01  -0.10108E+01   0.27561E+01
   0.39000E+01  -0.10684E+02  -0.10871E+02  -0.80221E+00  -0.80221E+00   0.27011E+01
   0.40000E+01  -0.87999E+01  -0.89730E+01  -0.63203E+00  -0.63203E+00   0.26480E+01
   0.41000E+01  -0.71881E+01  -0.73459E+01  -0.49511E+00  -0.49511E+00   0.25967E+01
   0.42000E+01  -0.58319E+01  -0.59742E+01  -0.38617E+00  -0.38617E+00   0.25469E+01
   0.43000E+01  -0.47062E+01  -0.48332E+01  -0.30025E+00  -0.30025E+00   0.24988E+01
   0.44000E+01  -0.37819E+01  -0.38944E+01  -0.23294E+00  -0.23294E+00   0.24522E+01
   0.45000E+01  -0.30295E+01  -0.31285E+01  -0.18048E+00  -0.18048E+00   0.24070E+01
   0.46000E+01  -0.24211E+01  -0.25077E+01  -0.13973E+00  -0.13973E+00   0.23632E+01
   0.47000E+01  -0.19318E+01  -0.20071E+01  -0.10818E+00  -0.10818E+00   0.23208E+01
   0.48000E+01  -0.15397E+01  -0.16050E+01  -0.83768E-01  -0.83768E-01   0.22797E+01
   0.49000E+01  -0.12265E+01  -0.12828E+01  -0.64908E-01  -0.64908E-01   0.22398E+01
   0.50000E+01  -0.97672E+00  -0.10252E+01  -0.50337E-01  -0.50337E-01   0.22011E+01
   0.51000E+01  -0.77785E+00  -0.81943E+00  -0.39079E-01  -0.39079E-01   0.21635E+01
   0.52000E+01  -0.61964E+00  -0.65523E+00  -0.30376E-01  -0.30376E-01   0.21271E+01
   0.53000E+01  -0.49382E+00  -0.52422E+00  -0.23642E-01  -0.23642E-01   0.20917E+01
   0.54000E+01  -0.39378E+00  -0.41970E+00  -0.18426E-01  -0.18426E-01   0.20574E+01
   0.55000E+01  -0.31421E+00  -0.33628E+00  -0.14381E-01  -0.14381E-01   0.20240E+01
   0.56000E+01  -0.25092E+00  -0.26968E+00  -0.11241E-01  -0.11241E-01   0.19917E+01
   0.57000E+01  -0.20053E+00  -0.21646E+00  -0.87994E-02  -0.87994E-02   0.19602E+01
   0.58000E+01  -0.16041E+00  -0.17392E+00  -0.68984E-02  -0.68984E-02   0.19296E+01
   0.59000E+01  -0.12842E+00  -0.13988E+00  -0.54160E-02  -0.54160E-02   0.18999E+01
   0.60000E+01  -0.10291E+00  -0.11261E+00  -0.42584E-02  -0.42584E-02   0.18710E+01
   0.61000E+01  -0.82542E-01  -0.90749E-01  -0.33530E-02  -0.33530E-02   0.18429E+01
   0.62000E+01  -0.66266E-01  -0.73207E-01  -0.26439E-02  -0.26439E-02   0.18156E+01
   0.63000E+01  -0.53249E-01  -0.59117E-01  -0.20877E-02  -0.20877E-02   0.17890E+01
   0.64000E+01  -0.42829E-01  -0.47786E-01  -0.16508E-02  -0.16508E-02   0.17631E+01
   0.65000E+01  -0.34479E-01  -0.38667E-01  -0.13071E-02  -0.13071E-02   0.17379E+01
   0.66000E+01  -0.27783E-01  -0.31318E-01  -0.10363E-02  -0.10363E-02   0.17133E+01
   0.67000E+01  -0.22407E-01  -0.25391E-01  -0.82267E-03  -0.82267E-03   0.16894E+01
   0.68000E+01  -0.18087E-01  -0.20606E-01  -0.65391E-03  -0.65391E-03   0.16661E+01
   0.69000E+01  -0.14613E-01  -0.16738E-01  -0.52042E-03  -0.52042E-03   0.16434E+01
   0.70000E+01  -0.11817E-01  -0.13610E-01  -0.41468E-03  -0.41468E-03   0.16212E+01
   0.71000E+01  -0.95635E-02  -0.11076E-01  -0.33082E-03  -0.33082E-03   0.15997E+01
   0.72000E+01  -0.77463E-02  -0.90218E-02  -0.26423E-03  -0.26423E-03   0.15786E+01
   0.73000E+01  -0.62796E-02  -0.73553E-02  -0.21128E-03  -0.21128E-03   0.15581E+01
   0.74000E+01  -0.50947E-02  -0.60019E-02  -0.16913E-03  -0.16913E-03   0.15380E+01
   0.75000E+01  -0.41366E-02  -0.49017E-02  -0.13553E-03  -0.13553E-03   0.15185E+01
   0.76000E+01  -0.33614E-02  -0.40065E-02  -0.10873E-03  -0.10873E-03   0.14994E+01
   0.77000E+01  -0.27335E-02  -0.32775E-02  -0.87316E-04  -0.87316E-04   0.14807E+01
   0.78000E+01  -0.22245E-02  -0.26833E-02  -0.70192E-04  -0.70192E-04   0.14625E+01
   0.79000E+01  -0.18117E-02  -0.21986E-02  -0.56482E-04  -0.56482E-04   0.14447E+01
   0.80000E+01  -0.14765E-02  -0.18028E-02  -0.45494E-04  -0.45494E-04   0.14273E+01
   0.81000E+01  -0.12042E-02  -0.14794E-02  -0.36679E-04  -0.36679E-04   0.14103E+01
   0.82000E+01  -0.98281E-03  -0.12150E-02  -0.29600E-04  -0.29600E-04   0.13937E+01
   0.83000E+01  -0.80266E-03  -0.99850E-03  -0.23909E-04  -0.23909E-04   0.13775E+01
   0.84000E+01  -0.65597E-03  -0.82118E-03  -0.19330E-04  -0.19330E-04   0.13616E+01
   0.85000E+01  -0.53644E-03  -0.67583E-03  -0.15641E-04  -0.15641E-04   0.13461E+01
   0.86000E+01  -0.43898E-03  -0.55659E-03  -0.12667E-04  -0.12667E-04   0.13309E+01
   0.87000E+01  -0.35945E-03  -0.45870E-03  -0.10267E-04  -0.10267E-04   0.13160E+01
   0.88000E+01  -0.29451E-03  -0.37828E-03  -0.83293E-05  -0.83293E-05   0.13015E+01
   0.89000E+01  -0.24145E-03  -0.31215E-03  -0.67624E-05  -0.67624E-05   0.12872E+01
   0.90000E+01  -0.19807E-03  -0.25775E-03  -0.54947E-05  -0.54947E-05   0.12733E+01
   0.91000E+01  -0.16258E-03  -0.21297E-03  -0.44681E-05  -0.44681E-05   0.12596E+01
   0.92000E+01  -0.13352E-03  -0.17607E-03  -0.36361E-05  -0.36361E-05   0.12462E+01
   0.93000E+01  -0.10973E-03  -0.14565E-03  -0.29613E-05  -0.29613E-05   0.12331E+01
   0.94000E+01  -0.90218E-04  -0.12056E-03  -0.24135E-05  -0.24135E-05   0.12202E+01
   0.95000E+01  -0.74219E-04  -0.99851E-04  -0.19684E-05  -0.19684E-05   0.12077E+01
   0.96000E+01  -0.61090E-04  -0.82744E-04  -0.16066E-05  -0.16066E-05   0.11953E+01
   0.97000E+01  -0.50311E-04  -0.68606E-04  -0.13121E-05  -0.13121E-05   0.11832E+01
   0.98000E+01  -0.41455E-04  -0.56915E-04  -0.10724E-05  -0.10724E-05   0.11714E+01
   0.99000E+01  -0.34175E-04  -0.47241E-04  -0.87707E-06  -0.87707E-06   0.11597E+01
   0.10000E+02  -0.28188E-04  -0.39232E-04  -0.71778E-06  -0.71778E-06   0.11483E+01
   0.10100E+02  -0.23261E-04  -0.32597E-04  -0.58780E-06  -0.58780E-06   0.11371E+01
   0.10200E+02  -0.19205E-04  -0.27098E-04  -0.48166E-06  -0.48166E-06   0.11261E+01
   0.10300E+02  -0.15864E-04  -0.22538E-04  -0.39493E-06  -0.39493E-06   0.11154E+01
   0.10400E+02  -0.13110E-04  -0.18754E-04  -0.32402E-06  -0.32402E-06   0.11048E+01
   0.10500E+02  -0.10839E-04  -0.15613E-04  -0.26600E-06  -0.26600E-06   0.10944E+01
   0.10600E+02  -0.89655E-05  -0.13004E-04  -0.21850E-06  -0.21850E-06   0.10842E+01
   0.10700E+02  -0.74192E-05  -0.10836E-04  -0.17958E-06  -0.17958E-06   0.10742E+01
   0.10800E+02  -0.61423E-05  -0.90334E-05  -0.14768E-06  -0.14768E-06   0.10644E+01
   0.10900E+02  -0.50874E-05  -0.75340E-05  -0.12152E-06  -0.12152E-06   0.10547E+01
   0.11000E+02  -0.42154E-05  -0.62861E-05  -0.10004E-06  -0.10004E-06   0.10452E+01
   0.11100E+02  -0.34944E-05  -0.52472E-05  -0.82407E-07  -0.82407E-07   0.10359E+01
   0.11200E+02  -0.28979E-05  -0.43818E-05  -0.67916E-07  -0.67916E-07   0.10267E+01
   0.11300E+02  -0.24042E-05  -0.36606E-05  -0.56003E-07  -0.56003E-07   0.10177E+01
   0.11400E+02  -0.19954E-05  -0.30593E-05  -0.46203E-07  -0.46203E-07   0.10089E+01
   0.11500E+02  -0.16567E-05  -0.25578E-05  -0.38137E-07  -0.38137E-07   0.10002E+01
   0.11600E+02  -0.13761E-05  -0.21393E-05  -0.31494E-07  -0.31494E-07   0.99163E+00
   0.11700E+02  -0.11434E-05  -0.17899E-05  -0.26022E-07  -0.26022E-07   0.98322E+00
   0.11800E+02  -0.95048E-06  -0.14982E-05  -0.21510E-07  -0.21510E-07   0.97495E+00
   0.11900E+02  -0.79037E-06  -0.12544E-05  -0.17789E-07  -0.17789E-07   0.96682E+00
   0.12000E+02  -0.65747E-06  -0.10507E-05  -0.14719E-07  -0.14719E-07   0.95882E+00
   0.12100E+02  -0.54711E-06  -0.88041E-06  -0.12184E-07  -0.12184E-07   0.95095E+00
   0.12200E+02  -0.45544E-06  -0.73795E-06  -0.10090E-07  -0.10090E-07   0.94320E+00
   0.12300E+02  -0.37926E-06  -0.61874E-06  -0.83593E-08  -0.83593E-08   0.93558E+00
   0.12400E+02  -0.31593E-06  -0.51896E-06  -0.69287E-08  -0.69287E-08   0.92808E+00
   0.12500E+02  -0.26327E-06  -0.43542E-06  -0.57453E-08  -0.57453E-08   0.92070E+00
   0.12600E+02  -0.21945E-06  -0.36543E-06  -0.47660E-08  -0.47660E-08   0.91343E+00
   0.12700E+02  -0.18299E-06  -0.30679E-06  -0.39553E-08  -0.39553E-08   0.90627E+00
   0.12800E+02  -0.15264E-06  -0.25764E-06  -0.32838E-08  -0.32838E-08   0.89923E+00
   0.12900E+02  -0.12736E-06  -0.21643E-06  -0.27273E-08  -0.27273E-08   0.89229E+00
   0.13000E+02  -0.10630E-06  -0.18186E-06  -0.22661E-08  -0.22661E-08   0.88546E+00
   0.13100E+02  -0.88752E-07  -0.15286E-06  -0.18836E-08  -0.18836E-08   0.87873E+00
   0.13200E+02  -0.74123E-07  -0.12852E-06  -0.15662E-08  -0.15662E-08   0.87210E+00
   0.13300E+02  -0.61924E-07  -0.10809E-06  -0.13028E-08  -0.13028E-08   0.86557E+00
   0.13400E+02  -0.51748E-07  -0.90925E-07  -0.10841E-08  -0.10841E-08   0.85913E+00
   0.13500E+02  -0.43257E-07  -0.76509E-07  -0.90240E-09  -0.90240E-09   0.85279E+00
   0.13600E+02  -0.36169E-07  -0.64395E-07  -0.75144E-09  -0.75144E-09   0.84654E+00
   0.13700E+02  -0.30252E-07  -0.54213E-07  -0.62595E-09  -0.62595E-09   0.84038E+00
   0.13800E+02  -0.25310E-07  -0.45652E-07  -0.52159E-09  -0.52159E-09   0.83431E+00
   0.13900E+02  -0.21181E-07  -0.38453E-07  -0.43478E-09  -0.43478E-09   0.82833E+00
   0.14000E+02  -0.17730E-07  -0.32397E-07  -0.36254E-09  -0.36254E-09   0.82243E+00
   0.14100E+02  -0.14846E-07  -0.27301E-07  -0.30240E-09  -0.30240E-09   0.81661E+00
   0.14200E+02  -0.12434E-07  -0.23012E-07  -0.25231E-09  -0.25231E-09   0.81088E+00
   0.14300E+02  -0.10416E-07  -0.19401E-07  -0.21059E-09  -0.21059E-09   0.80522E+00
   0.14400E+02  -0.87286E-08  -0.16360E-07  -0.17582E-09  -0.17582E-09   0.79965E+00
   0.14500E+02  -0.73162E-08  -0.13799E-07  -0.14684E-09  -0.14684E-09   0.79414E+00
   0.14600E+02  -0.61338E-08  -0.11641E-07  -0.12267E-09  -0.12267E-09   0.78872E+00
   0.14700E+02  -0.51438E-08  -0.98229E-08  -0.10251E-09  -0.10251E-09   0.78336E+00
   0.14800E+02  -0.43146E-08  -0.82902E-08  -0.85686E-10  -0.85686E-10   0.77808E+00
   0.14900E+02  -0.36199E-08  -0.69980E-08  -0.71645E-10  -0.71645E-10   0.77287E+00
   0.15000E+02  -0.30377E-08  -0.59083E-08  -0.59921E-10  -0.59921E-10   0.76773E+00
   0.15100E+02  -0.25498E-08  -0.49892E-08  -0.50130E-10  -0.50130E-10   0.76265E+00
   0.15200E+02  -0.21407E-08  -0.42138E-08  -0.41950E-10  -0.41950E-10   0.75764E+00
   0.15300E+02  -0.17976E-08  -0.35595E-08  -0.35114E-10  -0.35114E-10   0.75270E+00
   0.15400E+02  -0.15098E-08  -0.30072E-08  -0.29400E-10  -0.29400E-10   0.74782E+00
   0.15500E+02  -0.12684E-08  -0.25410E-08  -0.24622E-10  -0.24622E-10   0.74300E+00
   0.15600E+02  -0.10657E-08  -0.21474E-08  -0.20626E-10  -0.20626E-10   0.73825E+00
   0.15700E+02  -0.89563E-09  -0.18150E-08  -0.17283E-10  -0.17283E-10   0.73355E+00
   0.15800E+02  -0.75281E-09  -0.15342E-08  -0.14485E-10  -0.14485E-10   0.72892E+00
   0.15900E+02  -0.63286E-09  -0.12970E-08  -0.12143E-10  -0.12143E-10   0.72434E+00
   0.16000E+02  -0.53211E-09  -0.10966E-08  -0.10182E-10  -0.10182E-10   0.71982E+00
   0.16100E+02  -0.44745E-09  -0.92715E-09  -0.85398E-11  -0.85398E-11   0.71535E+00
   0.16200E+02  -0.37631E-09  -0.78395E-09  -0.71640E-11  -0.71640E-11   0.71094E+00
   0.16300E+02  -0.31651E-09  -0.66289E-09  -0.60112E-11  -0.60112E-11   0.70658E+00
   0.16400E+02  -0.26624E-09  -0.56052E-09  -0.50450E-11  -0.50450E-11   0.70228E+00
   0.16500E+02  -0.22396E-09  -0.47394E-09  -0.42350E-11  -0.42350E-11   0.69803E+00
   0.16600E+02  -0.18840E-09  -0.40071E-09  -0.35557E-11  -0.35557E-11   0.69383E+00
   0.16700E+02  -0.15849E-09  -0.33876E-09  -0.29860E-11  -0.29860E-11   0.68968E+00
   0.16800E+02  -0.13332E-09  -0.28635E-09  -0.25081E-11  -0.25081E-11   0.68558E+00
   0.16900E+02  -0.11214E-09  -0.24199E-09  -0.21070E-11  -0.21070E-11   0.68152E+00
   0.17000E+02  -0.94308E-10  -0.20446E-09  -0.17704E-11  -0.17704E-11   0.67752E+00
   0.17100E+02  -0.79298E-10  -0.17268E-09  -0.14878E-11  -0.14878E-11   0.67356E+00
   0.17200E+02  -0.66660E-10  -0.14579E-09  -0.12504E-11  -0.12504E-11   0.66964E+00
   0.17300E+02  -0.56017E-10  -0.12302E-09  -0.10511E-11  -0.10511E-11   0.66578E+00
   0.17400E+02  -0.47053E-10  -0.10374E-09  -0.88369E-12  -0.88369E-12   0.66195E+00
   0.17500E+02  -0.39501E-10  -0.87415E-10  -0.74298E-12  -0.74298E-12   0.65817E+00
   0.17600E+02  -0.33140E-10  -0.73593E-10  -0.62472E-12  -0.62472E-12   0.65444E+00
   0.17700E+02  -0.27780E-10  -0.61888E-10  -0.52531E-12  -0.52531E-12   0.65074E+00
   0.17800E+02  -0.23264E-10  -0.51978E-10  -0.44170E-12  -0.44170E-12   0.64709E+00
   0.17900E+02  -0.19459E-10  -0.43586E-10  -0.37138E-12  -0.37138E-12   0.64347E+00
   0.18000E+02  -0.16253E-10  -0.36483E-10  -0.31221E-12  -0.31221E-12   0.63990E+00
   0.18100E+02  -0.13552E-10  -0.30470E-10  -0.26241E-12  -0.26241E-12   0.63637E+00
   0.18200E+02  -0.11277E-10  -0.25382E-10  -0.22048E-12  -0.22048E-12   0.63287E+00
   0.18300E+02  -0.93618E-11  -0.21079E-10  -0.18515E-12  -0.18515E-12   0.62942E+00
   0.18400E+02  -0.77495E-11  -0.17441E-10  -0.15537E-12  -0.15537E-12   0.62600E+00
   0.18500E+02  -0.63933E-11  -0.14369E-10  -0.13025E-12  -0.13025E-12   0.62262E+00
   0.18600E+02  -0.52537E-11  -0.11777E-10  -0.10905E-12  -0.10905E-12   0.61927E+00
   0.18700E+02  -0.42973E-11  -0.95939E-11  -0.91118E-13  -0.91118E-13   0.61596E+00
   0.18800E+02  -0.34961E-11  -0.77590E-11  -0.75941E-13  -0.75941E-13   0.61269E+00
   0.18900E+02  -0.28267E-11  -0.62212E-11  -0.63065E-13  -0.63065E-13   0.60944E+00
   0.19000E+02  -0.22694E-11  -0.49376E-11  -0.52112E-13  -0.52112E-13   0.60624E+00
   0.19100E+02  -0.18076E-11  -0.38722E-11  -0.42762E-13  -0.42762E-13   0.60307E+00
   0.19200E+02  -0.14278E-11  -0.29947E-11  -0.34743E-13  -0.34743E-13   0.59993E+00
   0.19300E+02  -0.11185E-11  -0.22802E-11  -0.27824E-13  -0.27824E-13   0.59682E+00
   0.19400E+02  -0.87037E-12  -0.17077E-11  -0.21807E-13  -0.21807E-13   0.59375E+00
   0.19500E+02  -0.67574E-12  -0.12605E-11  -0.16521E-13  -0.16521E-13   0.59070E+00
   0.19600E+02  -0.52758E-12  -0.92263E-12  -0.11820E-13  -0.11820E-13   0.58769E+00
   0.19700E+02  -0.43322E-12  -0.71094E-12  -0.75730E-14  -0.75730E-14   0.58471E+00
   0.19800E+02  -0.37159E-12  -0.53446E-12  -0.35186E-14  -0.35186E-14   0.58176E+00
   0.19900E+02  -0.18822E-12  -0.28350E-12  -0.44426E-15  -0.44426E-15   0.57884E+00
   0.20000E+02   0.51602E-13   0.40496E-12  -0.15676E-15  -0.15676E-15   0.57594E+00
